<xrdMeasurements xmlns="http://www.xrdml.com/XRDMeasurement/2.1" xmlns:xsi="http://www.w3.org/2001/XMLSchema-instance" xsi:schemaLocation="http://www.xrdml.com/XRDMeasurement/2.1 http://www.xrdml.com/XRDMeasurement/2.1/XRDMeasurement.xsd" status="Completed">
	<comment>
		<entry>Configuration=Open Eulerian Cradle, Owner=User-1, Creation date=7/16/2019 1:49:51 PM</entry>
		<entry>Goniometer=PW3050/60 (Theta/Theta); Minimum step size 2Theta:0.001; Minimum step size Omega:0.001</entry>
		<entry>Sample stage=Open Eulerian Cradle (manual Z); Minimum step size Phi:0.01; Minimum step size Chi:0.01</entry>
		<entry>Diffractometer system=XPERT-PRO</entry>
		<entry>Measurement program=C:\PANalytical\Data Collector\Programs\Absolute scan_Xinran.xrdmp, Identifier={2139B0E3-ECE4-49DA-BCA1-13D29D9192FF}</entry>
		<entry>Fine Calibration Offset for 2Theta = -0.031 deg</entry>
	</comment>
	<sample type="To be analyzed">
		<id></id>
		<name></name>
		<preparedBy></preparedBy>
	</sample>
	<xrdMeasurement measurementType="Scan" status="Completed" sampleMode="Reflection">
		<comment>
			<entry>Absolutely scan slow kun</entry>
			<entry>PHD Lower Level = 4.02 (keV), PHD Upper Level = 11.27 (keV)</entry>
		</comment>
		<usedWavelength intended="K-Alpha 1">
			<kAlpha1 unit="Angstrom">1.5405980</kAlpha1>
			<kAlpha2 unit="Angstrom">1.5444260</kAlpha2>
			<kBeta unit="Angstrom">1.3922500</kBeta>
			<ratioKAlpha2KAlpha1>0.5000</ratioKAlpha2KAlpha1>
		</usedWavelength>
		<incidentBeamPath>
			<radius unit="mm">240.00</radius>
			<xRayTube id="1010048" name="Empyrean Cu LFF HR (9430 033 7310x) DK424370">
				<tension unit="kV">45.0</tension>
				<current unit="mA">40.0</current>
				<anodeMaterial>Cu</anodeMaterial>
				<focus type="Line">
					<length unit="mm">12.0</length>
					<width unit="mm">0.4</width>
					<takeOffAngle unit="deg">6.0</takeOffAngle>
				</focus>
			</xRayTube>
			<sollerSlit id="21010002" name="Soller slits 0.04 rad.">
				<opening unit="rad">0.0400</opening>
			</sollerSlit>
			<mask id="22030009" name="Fixed mask 10 mm">
				<distanceToSample unit="mm">171.20</distanceToSample>
				<width unit="mm">10.00</width>
			</mask>
			<antiScatterSlit id="22010003" name="Fixed slit 1°" xsi:type="fixedAntiScatterSlitType">
				<height unit="mm">1.52</height>
			</antiScatterSlit>
			<divergenceSlit id="22010012" name="Programmable divergence slit" xsi:type="fixedDivergenceSlitType">
				<distanceToSample unit="mm">179.50</distanceToSample>
				<angle unit="deg">0.5</angle>
			</divergenceSlit>
		</incidentBeamPath>
		<diffractedBeamPath>
			<radius unit="mm">240.00</radius>
			<antiScatterSlit id="22060009" name="Programmable anti-scatter slit" xsi:type="fixedAntiScatterSlitType">
				<angle unit="deg">0.5</angle>
			</antiScatterSlit>
			<sollerSlit id="21010002" name="Soller slits 0.04 rad.">
				<opening unit="rad">0.0400</opening>
			</sollerSlit>
			<filter id="20010004" name="Beta-filter Nickel">
				<material>Ni</material>
				<thickness unit="mm">0.020</thickness>
			</filter>
			<detector id="7010015" name="PIXcel1D detector" xsi:type="rtmsDetectorType">
				<phd unit="%">
					<lowerLevel>25.0</lowerLevel>
					<upperLevel>70.0</upperLevel>
				</phd>
				<mode>Scanning</mode>
				<activeLength unit="deg">3.348</activeLength>
			</detector>
		</diffractedBeamPath>
		<scan appendNumber="0" mode="Continuous" scanAxis="Gonio" status="Completed">
			<header>
				<startTimeStamp>2020-02-22T11:13:05-05:00</startTimeStamp>
				<endTimeStamp>2020-02-22T11:24:24-05:00</endTimeStamp>
				<author>
					<name>XRD</name>
				</author>
				<source>
					<applicationSoftware version="6.1b">Data Collector</applicationSoftware>
					<instrumentControlSoftware version="2.2F 20161117">XPERT-PRO</instrumentControlSoftware>
					<instrumentID>0000000011068722</instrumentID>
				</source>
			</header>
			<dataPoints>
				<positions axis="2Theta" unit="deg">
					<startPosition>5.00656514</startPosition>
					<endPosition>89.99888491</endPosition>
				</positions>
				<positions axis="Omega" unit="deg">
					<startPosition>2.50328257</startPosition>
					<endPosition>44.99944246</endPosition>
				</positions>
				<positions axis="Phi" unit="deg">
					<commonPosition>0.00</commonPosition>
				</positions>
				<positions axis="Chi" unit="deg">
					<commonPosition>0.00</commonPosition>
				</positions>
				<commonCountingTime unit="seconds">23.970</commonCountingTime>
				<counts unit="counts">1839 1769 1788 1716 1717 1683 1816 1826 1671 1737 1714 1785 1720 1744 1731 1692 1753 1709 1701 1709 1659 1679 1712 1742 1710 1682 1700 1705 1698 1682 1696 1684 1638 1668 1666 1691 1717 1632 1662 1645 1686 1698 1708 1608 1671 1677 1604 1607 1625 1701 1673 1599 1637 1677 1678 1705 1688 1531 1636 1601 1547 1562 1652 1570 1641 1546 1616 1610 1726 1566 1677 1683 1605 1654 1645 1567 1595 1592 1630 1603 1606 1575 1601 1550 1616 1686 1616 1590 1720 1580 1525 1675 1556 1576 1576 1597 1585 1578 1643 1555 1666 1606 1616 1684 1608 1557 1710 1575 1688 1663 1588 1644 1700 1598 1581 1662 1640 1752 1662 1702 1663 1598 1620 1633 1636 1625 1699 1757 1690 1645 1622 1641 1585 1669 1704 1763 1629 1719 1734 1627 1640 1678 1680 1717 1696 1636 1730 1701 1672 1692 1650 1718 1702 1643 1712 1709 1750 1812 1773 1724 1728 1747 1705 1708 1786 1843 1825 1753 1679 1720 1738 1792 1784 1735 1795 1797 1763 1727 1836 1640 1751 1717 1791 1842 1766 1693 1804 1833 1773 1818 1778 1845 1808 1724 1801 1729 1840 1753 1745 1697 1770 1798 1882 1775 1800 1800 1753 1824 1827 1786 1770 1781 1811 1742 1808 1845 1834 1842 1826 1745 1749 1835 1870 1820 1818 1862 1815 1795 1794 1870 1756 1771 1804 1831 1821 1801 1762 1846 1771 1808 1835 1743 1759 1830 1828 1768 1813 1816 1813 1765 1730 1778 1788 1867 1798 1730 1876 1808 1796 1734 1753 1721 1728 1822 1778 1759 1769 1795 1748 1795 1751 1692 1639 1698 1781 1793 1759 1671 1712 1772 1693 1702 1707 1628 1653 1675 1655 1723 1698 1646 1660 1669 1701 1706 1693 1681 1662 1681 1717 1623 1629 1714 1663 1628 1593 1583 1591 1627 1664 1691 1602 1577 1583 1655 1642 1594 1630 1609 1613 1630 1619 1563 1514 1554 1579 1620 1562 1544 1505 1528 1578 1544 1580 1578 1594 1556 1605 1520 1579 1604 1570 1537 1498 1594 1500 1536 1546 1529 1542 1554 1539 1503 1494 1447 1465 1560 1583 1460 1471 1436 1460 1511 1524 1464 1495 1487 1516 1443 1460 1461 1451 1488 1466 1450 1480 1501 1415 1449 1396 1463 1475 1450 1381 1462 1361 1396 1462 1452 1498 1419 1402 1411 1425 1464 1383 1436 1362 1393 1383 1418 1432 1459 1484 1469 1390 1337 1435 1397 1414 1368 1509 1460 1371 1368 1367 1388 1325 1427 1410 1388 1367 1294 1346 1349 1367 1353 1348 1410 1413 1304 1345 1383 1405 1355 1289 1275 1316 1340 1380 1323 1412 1383 1369 1277 1396 1281 1369 1291 1353 1310 1363 1322 1303 1366 1295 1296 1295 1300 1456 1311 1373 1365 1300 1333 1292 1387 1298 1322 1323 1396 1305 1269 1386 1376 1312 1293 1286 1311 1270 1316 1285 1297 1280 1279 1295 1275 1301 1331 1317 1270 1320 1315 1301 1315 1282 1287 1304 1338 1244 1225 1271 1278 1291 1273 1255 1307 1273 1346 1254 1229 1302 1330 1256 1245 1304 1214 1319 1340 1259 1265 1253 1305 1304 1312 1297 1301 1307 1250 1245 1225 1242 1283 1199 1332 1226 1269 1235 1218 1261 1210 1222 1168 1259 1316 1297 1291 1176 1224 1204 1204 1216 1310 1240 1158 1220 1281 1202 1239 1177 1248 1290 1206 1247 1178 1207 1252 1204 1244 1202 1161 1184 1198 1198 1164 1165 1178 1246 1167 1214 1245 1196 1210 1207 1165 1196 1186 1143 1225 1177 1179 1170 1135 1101 1182 1172 1210 1096 1214 1188 1141 1210 1206 1179 1170 1122 1116 1171 1132 1082 1132 1173 1129 1253 1163 1082 1063 1147 1182 1163 1142 1171 1149 1158 1131 1119 1175 1196 1222 1184 1082 1179 1172 1085 1152 1139 1177 1164 1194 1174 1123 1162 1102 1134 1129 1200 1153 1152 1107 1109 1134 1187 1134 1228 1107 1218 1225 1154 1144 1112 1165 1107 1138 1153 1162 1104 1101 1218 1155 1222 1175 1148 1137 1181 1106 1184 1257 1174 1209 1190 1197 1219 1204 1340 1315 1222 1156 1158 1188 1209 1188 1067 1106 1127 1139 1020 1110 1127 1124 1095 1165 1116 1148 1109 1114 1187 1072 1132 1162 1119 1034 1064 1064 1152 1037 1067 1075 1164 1156 1136 1057 1096 1097 1034 1045 1036 1026 1161 991 1045 1075 1054 1093 1043 1113 1072 1103 1119 1084 1052 1109 1097 1029 1113 1054 1010 1037 1037 1052 1031 1148 1125 1074 1074 1045 1137 1062 1106 1111 1150 1067 1078 1075 1086 1081 1096 1106 1142 1086 1045 1075 1103 1084 1061 1025 1083 1047 1001 1062 978 1106 1077 1069 1091 1109 1014 1095 1004 997 1017 1041 1070 1035 984 1016 976 1079 1054 1002 1082 1032 1060 1001 1001 974 990 1067 1033 1049 996 1052 1075 1046 1018 1060 1035 1023 1093 1039 1035 1023 978 1026 1006 1017 1040 1023 955 1049 1009 997 991 960 946 941 952 997 983 967 982 999 1056 1056 1046 978 1018 1021 1005 1019 987 1025 1050 969 981 963 951 965 964 989 967 1022 1026 991 971 1009 985 1007 960 972 963 1007 930 973 933 985 965 934 975 955 951 904 962 978 909 957 955 923 982 952 980 916 936 946 1004 959 923 905 922 970 953 947 944 949 924 964 916 943 973 951 927 911 975 927 934 874 872 935 943 955 895 913 911 934 928 993 953 988 902 919 855 902 965 951 954 898 926 913 842 893 933 956 981 957 909 898 955 929 918 917 944 888 880 949 889 935 909 925 911 893 858 888 847 889 876 926 989 927 885 914 925 941 938 935 955 857 922 862 988 920 855 920 866 900 930 866 886 891 869 906 846 905 864 893 869 866 876 907 849 928 910 899 839 893 844 819 862 859 831 893 798 882 835 840 858 810 778 849 860 913 882 898 883 838 898 911 880 903 866 843 853 877 871 844 888 804 841 824 912 898 769 845 852 798 830 780 845 847 853 869 871 846 851 848 852 811 873 833 846 830 824 854 817 809 781 842 856 825 819 869 808 904 841 807 783 872 824 758 836 875 814 827 816 836 850 832 807 810 769 796 826 821 801 840 842 779 794 837 878 839 748 819 806 778 856 801 811 796 775 824 803 835 780 806 776 820 822 793 785 754 750 798 773 833 776 788 829 759 818 833 801 806 751 785 785 823 822 753 825 798 782 750 755 794 771 816 840 789 789 836 750 818 813 792 837 824 781 871 812 782 751 816 793 824 793 784 762 797 766 793 776 728 786 765 753 800 758 812 771 789 753 784 797 738 744 784 811 804 743 797 721 775 767 731 794 810 731 771 844 753 751 765 757 761 763 772 816 784 783 779 746 745 748 763 808 730 770 771 778 808 815 785 776 747 805 763 779 774 761 676 679 754 712 743 769 762 759 754 759 795 763 756 738 704 747 724 720 776 709 777 768 714 723 744 723 738 732 789 716 720 718 734 747 725 725 726 755 717 757 751 732 702 709 781 732 747 693 778 742 750 719 740 716 713 749 715 694 702 757 743 694 712 699 697 705 745 682 736 714 730 715 745 733 733 706 704 722 749 741 750 697 767 721 695 699 737 752 691 758 749 697 692 687 724 689 679 730 702 719 691 767 752 678 691 727 779 697 758 718 710 732 729 685 713 683 663 694 699 670 724 709 719 724 721 707 707 679 715 728 743 749 709 684 673 672 727 715 687 682 697 682 675 702 723 689 667 684 663 674 664 700 682 696 687 734 677 680 642 707 691 634 685 719 662 681 655 753 715 711 710 687 714 755 755 693 702 705 672 709 705 748 753 718 737 723 734 722 697 734 703 700 740 753 741 763 747 725 760 709 733 761 792 805 803 814 791 796 844 865 889 882 938 957 974 1037 1012 1224 1205 1318 1537 1635 1802 2101 2507 2807 3191 3458 3685 3542 3217 2797 2557 2254 1841 1558 1238 1126 1012 920 862 783 759 797 756 774 739 711 737 666 712 690 688 674 702 675 702 698 743 666 697 684 696 695 645 669 614 671 652 684 686 683 667 617 672 641 659 681 611 675 656 684 651 663 673 653 645 583 641 671 680 598 632 639 606 643 609 666 617 632 660 669 635 603 617 690 635 662 654 698 629 584 580 638 632 637 650 631 648 637 650 606 654 655 625 617 632 635 641 642 610 659 593 613 592 602 569 604 597 623 614 664 610 616 645 609 586 620 568 589 603 632 628 631 609 612 636 604 628 624 585 613 686 627 594 621 563 546 594 615 620 569 646 602 575 628 587 533 614 569 623 576 568 584 600 618 568 581 611 644 627 597 558 556 592 602 612 634 634 594 565 619 593 569 618 564 608 600 577 572 635 564 577 649 616 608 567 670 571 610 606 618 597 542 590 564 579 586 626 626 592 611 601 601 600 584 632 561 594 588 601 590 618 608 603 557 579 609 630 640 596 614 546 615 609 616 606 648 560 613 635 595 595 625 640 591 600 610 570 610 617 589 589 567 569 612 569 574 585 617 605 620 637 624 633 606 639 624 583 588 608 619 612 589 602 585 636 640 561 582 599 617 583 607 633 642 674 636 663 692 640 641 649 674 638 673 676 680 639 723 709 725 840 793 859 884 1008 1079 1201 1327 1436 1589 1804 1990 1966 1925 1727 1670 1506 1355 1324 1198 1053 866 792 792 743 690 705 647 606 677 678 613 580 636 600 590 615 659 604 572 585 561 537 584 610 610 603 572 558 579 583 529 622 552 547 600 557 535 608 618 574 581 556 595 574 560 614 575 574 531 589 554 582 517 607 581 566 651 608 573 532 521 569 602 537 521 544 549 580 572 601 567 524 515 567 582 591 575 575 592 580 591 530 502 551 548 584 599 539 550 567 580 522 547 594 609 548 590 503 539 501 559 552 573 569 585 587 498 534 563 515 517 548 545 554 580 562 488 550 562 539 569 565 551 610 544 609 545 548 567 558 571 524 555 527 535 551 567 526 528 500 530 538 560 541 555 574 524 534 516 558 530 524 562 592 586 543 567 531 593 595 615 554 529 587 569 543 571 586 580 576 579 598 592 567 611 550 583 612 603 599 546 554 612 557 603 548 579 599 582 563 585 620 621 598 582 609 566 656 622 634 609 630 616 582 603 637 656 640 664 634 644 603 631 752 742 777 765 848 874 869 909 975 1110 1171 1277 1364 1486 1706 1930 2168 2593 3123 3749 4554 5671 6876 8479 9883 10657 10363 9769 8646 7928 7279 6715 6093 5244 4059 3187 2562 2009 1736 1536 1341 1251 1180 1102 1054 927 956 879 861 868 759 758 770 716 724 676 706 702 725 726 691 720 682 652 706 681 727 666 667 662 681 626 657 672 677 659 625 597 602 680 617 643 637 653 673 625 635 611 639 610 629 633 598 610 648 603 642 629 643 587 607 620 634 582 634 589 621 610 661 677 694 721 744 733 783 780 773 798 902 936 1036 1113 1198 1330 1405 1568 1833 2220 2712 3225 3880 4786 5520 6332 6326 6488 6535 6640 6182 5714 5122 4362 3842 3453 3035 2514 1997 1635 1347 1172 1054 975 873 820 799 764 705 724 704 635 660 697 681 654 622 625 575 567 612 529 601 624 579 585 528 550 606 557 548 602 513 563 556 551 587 610 595 524 549 541 550 542 562 573 586 551 587 579 543 579 548 533 556 564 538 540 554 555 509 568 519 506 548 515 561 563 549 561 557 546 557 553 551 562 553 554 567 542 550 535 598 603 533 523 543 541 514 542 536 532 517 540 555 557 553 538 526 531 552 530 494 513 537 541 496 548 514 531 534 498 518 480 552 541 539 489 539 552 550 535 510 504 528 490 555 549 533 520 519 557 546 523 563 528 532 503 494 531 497 516 486 520 518 547 534 508 492 534 485 516 532 540 548 533 543 515 564 583 502 504 545 527 548 548 533 513 585 513 539 528 539 543 533 543 580 527 560 524 529 529 519 517 507 522 536 575 528 526 547 560 531 509 522 541 516 538 530 544 522 501 543 576 551 553 553 557 555 577 633 626 654 660 670 648 659 677 650 673 644 640 631 643 597 596 579 548 560 554 548 549 561 521 522 532 543 493 542 564 556 535 514 547 538 574 527 567 530 534 501 533 541 539 528 533 519 481 540 484 518 528 565 495 573 540 519 508 528 548 539 576 525 532 583 519 526 490 550 519 513 526 527 527 522 468 511 526 545 570 504 504 488 506 550 548 504 517 521 520 509 525 502 513 511 506 570 533 523 504 514 567 542 528 528 504 556 558 502 488 484 504 466 518 529 480 538 530 477 506 492 530 527 535 521 497 499 499 471 493 496 516 512 519 482 526 510 480 496 492 498 477 498 484 551 511 489 502 513 501 537 506 544 481 486 522 489 495 491 508 540 509 501 493 522 526 527 492 487 464 472 474 452 434 463 441 446 506 497 500 493 490 478 544 480 541 464 501 490 483 480 464 506 482 496 478 483 508 507 486 513 519 546 487 517 485 483 487 492 513 509 464 541 501 497 466 464 509 495 473 461 461 466 477 492 518 509 437 475 446 492 474 488 468 457 443 464 458 514 464 467 491 483 476 449 480 474 456 472 473 509 461 480 466 431 482 472 514 484 439 489 458 516 474 454 492 472 483 485 517 452 448 413 491 498 488 510 443 463 452 462 476 473 441 478 481 475 460 474 442 463 471 460 453 506 453 479 447 446 431 432 416 423 452 433 449 432 412 468 457 437 446 411 393 479 465 434 413 438 488 418 471 426 420 451 434 422 460 454 477 417 494 450 431 487 462 460 390 462 470 458 457 424 428 433 397 425 410 424 446 417 483 411 455 427 449 426 428 412 449 433 443 441 445 453 418 441 437 472 428 434 442 412 450 437 419 454 411 480 429 474 425 442 428 456 414 470 448 479 438 405 404 424 405 443 419 411 419 446 429 387 415 411 412 434 443 406 410 437 405 420 399 406 373 414 412 445 395 466 443 444 454 427 476 433 437 443 420 413 422 440 438 445 459 431 408 387 423 455 385 439 480 485 401 450 495 427 432 427 441 478 461 439 461 429 395 421 446 428 426 436 465 412 432 447 394 440 422 419 448 430 417 433 445 455 423 453 433 477 469 456 437 463 495 434 439 433 470 450 509 497 421 476 455 486 474 456 465 459 473 504 513 529 546 532 545 557 524 541 555 638 647 676 675 687 777 877 964 1086 1302 1487 1695 1867 2086 2111 2033 1913 1879 1835 1854 2042 2167 2251 2283 1949 1680 1429 1293 1213 1121 1118 1133 1067 992 805 766 656 642 629 580 516 571 520 535 550 541 517 461 508 487 477 496 526 496 480 514 535 496 458 475 515 521 487 485 522 547 528 502 542 475 512 490 521 524 502 570 546 555 561 606 556 658 633 652 697 760 788 804 854 965 1125 1244 1471 1853 2152 2586 2828 3079 3348 3166 3075 2900 2640 2536 2398 2226 2120 2007 1847 1691 1512 1320 1108 928 772 757 664 669 605 593 549 578 543 559 528 512 496 505 454 456 468 476 526 462 489 448 472 424 464 450 468 504 463 473 509 497 424 448 498 443 479 438 450 475 450 469 458 454 435 474 470 420 448 438 459 446 458 468 475 415 439 431 433 406 458 420 393 432 385 379 420 427 442 412 414 432 406 411 426 452 457 433 440 438 438 447 438 454 401 455 418 431 452 445 449 468 417 431 445 428 431 435 432 438 420 402 464 403 435 439 436 432 438 444 459 445 420 468 404 449 425 427 437 480 432 412 452 407 444 470 411 430 431 436 428 458 430 460 436 433 448 460 433 483 441 434 419 476 439 475 393 446 429 447 450 438 434 468 443 454 450 481 472 426 448 396 432 447 414 435 433 452 470 445 420 456 421 440 442 438 425 442 423 432 461 484 439 465 458 465 381 470 467 381 446 458 502 459 463 478 435 441 459 482 474 462 470 448 475 427 440 464 473 461 454 479 471 472 498 545 485 522 538 552 582 603 610 595 646 670 707 716 787 839 953 1125 1298 1499 1880 2457 2950 3627 4133 4213 3831 3174 2569 2174 2078 2123 2322 2530 2496 2325 1995 1673 1276 1012 924 837 729 676 617 598 617 593 547 537 516 510 485 521 499 530 457 445 454 487 511 472 466 443 406 470 440 448 447 431 405 481 403 450 467 441 476 449 442 433 443 446 421 427 404 460 437 454 452 451 437 416 438 404 390 394 427 417 450 423 425 434 421 440 424 434 444 403 423 432 430 440 404 440 401 412 437 428 420 418 425 437 406 422 456 376 488 416 412 393 436 442 416 421 424 449 417 424 435 468 452 420 408 445 441 391 423 448 420 409 430 457 436 426 472 433 445 442 396 426 403 418 420 435 392 467 434 448 434 408 413 411 405 405 382 436 407 431 417 359 404 428 420 396 390 428 405 391 445 426 435 441 423 411 396 410 387 392 441 422 446 385 440 439 449 407 424 434 451 441 428 403 406 380 424 415 410 413 450 432 420 439 404 435 424 402 416 402 418 436 425 433 451 448 438 420 437 448 443 447 431 453 400 423 407 391 413 431 422 420 432 424 408 415 425 432 425 397 450 428 448 379 419 421 428 403 386 413 434 430 407 442 412 427 393 385 425 393 434 383 445 402 446 397 430 391 420 443 402 416 437 427 405 374 387 428 396 397 420 418 387 425 398 406 413 411 397 373 391 425 390 392 392 383 395 388 384 379 404 382 416 451 392 369 391 364 383 411 363 410 436 386 402 402 393 384 412 402 386 388 416 430 368 405 367 420 429 448 448 422 406 448 394 411 421 429 433 460 431 440 419 464 486 420 446 395 417 415 441 470 419 426 442 400 426 445 453 397 467 390 409 429 472 391 422 385 405 395 438 395 392 412 365 420 367 403 438 405 405 400 399 397 395 434 389 423 425 397 446 421 417 425 406 351 392 410 402 375 408 434 392 448 400 435 445 427 362 406 449 394 380 433 443 386 414 376 404 395 385 408 447 408 424 365 395 396 409 388 395 394 368 407 402 362 419 375 408 385 390 416 365 402 420 398 407 410 368 341 380 424 420 408 411 397 422 416 419 407 405 401 400 367 423 403 410 420 459 406 401 396 406 413 418 383 429 409 465 406 427 429 441 416 434 422 473 453 469 475 484 540 532 598 657 740 801 918 918 888 886 890 878 898 823 907 836 761 751 722 686 745 647 669 664 649 558 573 501 453 448 501 475 417 454 453 437 421 439 422 385 419 458 433 385 426 397 409 400 421 418 388 379 396 369 388 403 435 439 376 409 402 420 407 403 379 407 422 404 396 383 388 437 404 383 400 415 382 413 432 451 371 405 430 441 449 427 430 423 442 429 422 443 455 445 458 423 472 469 521 456 482 507 567 643 643 737 867 969 1084 1185 1243 1292 1176 1194 1053 947 919 909 915 876 903 886 864 863 778 737 694 630 605 541 498 499 483 463 460 491 433 484 438 452 416 424 466 415 447 450 483 378 420 446 474 457 456 460 468 461 453 467 512 472 496 477 514 517 576 526 644 590 710 831 869 981 1113 1134 1186 1285 1247 996 930 856 800 820 839 847 922 926 937 1018 921 931 989 1037 1136 1256 1455 1430 1476 1432 1361 1131 1001 879 894 840 862 913 969 950 902 868 788 705 631 564 504 501 514 451 444 435 432 452 396 428 428 460 400 382 413 413 452 428 395 433 385 354 381 386 403 409 372 388 381 426 424 407 401 409 379 411 426 382 418 408 400 389 391 383 401 413 430 432 402 427 405 438 418 412 394 411 394 388 433 417 408 387 424 412 410 434 404 421 421 375 430 430 439 405 448 415 434 418 441 456 475 475 513 490 501 495 562 504 552 560 594 572 670 600 656 653 788 875 999 1205 1450 1744 1985 2373 2639 2957 2828 2953 2843 2810 2741 2585 2395 2139 2074 1928 2004 1994 1876 1880 1738 1678 1601 1465 1311 1196 990 825 781 741 727 680 621 665 599 655 581 657 664 693 776 823 815 800 816 712 660 577 562 587 566 564 590 655 602 602 579 495 526 482 469 464 443 482 448 417 431 430 448 405 444 401 406 436 417 435 415 420 394 416 393 398 437 398 412 374 409 375 400 392 391 360 413 415 381 372 365 386 401 401 400 333 386 388 380 385 390 355 339 353 344 373 363 375 408 404 373 383 391 364 368 443 387 382 396 335 367 382 374 382 349 351 411 396 423 364 369 388 369 366 383 383 390 387 380 351 360 355 363 393 410 355 354 368 370 389 368 388 372 335 397 377 387 367 352 357 390 378 358 385 384 406 379 392 389 374 365 361 404 381 379 383 329 338 430 370 407 361 364 394 377 385 415 334 371 359 333 375 398 360 381 348 375 358 364 355 370 385 364 373 389 368 362 390 352 389 349 386 371 342 374 380 395 374 378 380 399 342 402 359 385 382 361 361 384 345 370 353 365 397 349 367 379 368 353 350 368 344 391 340 368 382 389 353 353 376 372 379 385 363 391 359 381 366 399 363 424 391 384 381 391 383 378 390 350 377 404 375 383 379 390 339 387 334 396 369 385 381 400 369 359 353 355 396 398 349 334 386 390 368 338 364 345 390 367 341 383 403 365 356 359 362 352 373 330 353 388 355 374 327 372 357 367 361 365 335 359 344 386 362 357 382 359 351 362 342 358 366 400 378 365 374 388 387 349 395 356 339 349 387 360 358 403 388 381 419 352 339 337 340 364 357 354 396 332 346 382 409 419 360 356 336 386 339 396 385 364 373 380 371 380 415 381 385 380 411 353 393 361 401 345 357 362 371 412 367 361 362 382 380 369 349 332 352 348 355 409 357 387 404 386 371 359 353 366 383 348 386 364 409 337 365 368 373 378 361 378 346 356 388 362 409 352 373 397 415 376 345 367 369 341 365 404 350 372 319 350 347 369 363 358 372 359 381 392 388 368 377 370 363 366 417 339 332 387 351 344 380 391 381 370 403 387 369 373 405 384 370 345 363 417 405 365 406 380 375 352 349 332 373 385 402 390 371 387 407 365 362 363 393 377 359 354 335 348 398 384 391 374 384 391 409 373 338 359 369 366 358 374 337 358 391 380 373 360 365 363 339 352 388 386 353 354 350 370 338 368 391 346 371 411 397 349 353 372 337 333 384 354 324 375 358 321 389 365 381 346 395 361 377 387 363 402 387 413 383 364 396 398 397 434 382 412 419 365 418 416 435 441 454 470 486 496 548 565 601 688 796 789 909 964 1006 1071 1129 1177 1245 1290 1330 1343 1376 1309 1289 1252 1090 1092 991 944 892 947 882 898 891 924 866 865 805 675 621 618 552 542 476 483 447 471 449 421 412 368 398 395 364 386 428 414 387 372 389 404 326 367 381 347 405 373 400 356 358 360 424 373 377 356 406 346 368 400 354 403 363 368 358 344 380 357 342 359 374 405 381 363 397 384 381 391 387 355 327 383 358 364 362 406 359 334 405 375 380 361 368 366 339 338 377 392 338 356 386 363 346 360 333 363 377 345 392 340 378 365 364 414 335 334 301 345 363 326 361 342 330 372 351 323 375 372 335 327 366 350 317 322 348 353 357 351 372 334 347 363 356 374 397 318 324 347 377 358 349 337 344 368 338 378 357 341 348 369 331 360 335 363 338 331 382 366 363 382 347 368 345 351 361 360 349 370 348 343 380 338 349 382 338 338 344 362 349 392 379 409 367 364 387 363 364 368 384 370 401 358 382 370 396 424 414 417 410 412 434 422 442 454 412 452 510 489 554 629 637 728 740 846 808 849 792 790 801 701 616 600 554 588 571 572 607 642 630 656 652 704 647 645 697 631 691 759 782 827 918 851 841 753 782 738 788 857 904 914 896 965 948 864 826 756 659 721 642 577 627 656 633 631 598 615 585 629 532 512 485 432 404 470 406 467 389 372 413 426 437 406 373 402 385 389 386 392 403 402 429 399 423 391 323 373 373 402 380 388 414 361 407 406 396 372 420 385 385 401 379 388 378 374 377 410 412 356 361 378 405 369 385 359 377 365 388 377 385 346 368 362 355 369 382 349 364 354 397 365 384 335 351 363 372 350 360 399 418 367 381 388 371 356 379 396 372 404 356 389 354 385 369 365 382 407 360 353 345 393 349 376 362 359 410 376 345 402 385 380 379 412 408 383 394 393 357 378 370 391 421 376 390 392 363 391 392 369 374 342 409 379 395 376 368 369 398 381 370 349 389 407 348 399 384 380 398 401 373 412 353 400 397 406 368 393 387 417 386 389 430 417 396 391 371 396 398 390 391 387 341 412 370 415 403 379 384 381 401 398 377 382 419 371 410 393 395 395 352 376 375 392 353 335 398 377 387 364 377 381 392 369 335 374 378 392 382 380 363 362 349 376 355 385 379 366 326 350 405 433 341 347 379 337 347 379 375 387 356 354 345 363 368 314 329 358 372 334 373 370 349 393 371 335 352 364 341 380 359 320 372 353 352 383 369 391 361 354 373 362 400 384 348 361 348 364 363 366 402 381 358 381 386 345 343 333 353 382 374 383 305 364 354 384 358 354 350 358 386 370 385 317 351 378 346 355 350 347 368 376 352 349 361 327 358 352 374 376 376 405 403 393 365 329 387 347 364 324 359 348 362 347 341 390 384 402 398 380 344 337 349 371 359 363 324 344 430 358 351 345 345 373 385 379 360 350 400 333 352 352 389 324 379 343 348 384 362 350 376 391 375 345 359 372 364 348 379 383 366 400 396 413 422 456 460 494 473 491 466 421 371 416 352 365 412 419 378 398 397 416 393 385 389 376 426 418 385 386 344 374 365 392 344 325 389 354 398 355 383 386 373 322 341 324 377 378 323 358 362 356 374 370 393 402 369 344 391 386 402 377 421 450 401 380 403 392 387 398 370 357 366 410 402 365 389 378 376 409 373 320 369 321 379 361 375 386 383 385 372 376 359 355 407 359 321 372 411 365 412 353 395 340 377 373 351 381 393 380 339 337 346 402 357 348 389 405 358 369 366 371 382 365 378 371 402 384 396 372 425 390 344 374 393 448 435 462 494 503 541 552 568 528 604 556 550 552 639 560 645 579 665 633 655 659 720 769 802 780 900 968 951 998 1044 1057 1044 999 975 882 840 855 781 731 722 681 688 710 692 676 680 701 654 645 692 683 618 568 566 480 490 463 425 446 450 406 396 400 389 384 373 375 399 374 361 368 390 349 390 386 350 391 360 344 363 344 381 371 364 368 323 354 376 338 348 364 344 388 352 364 399 357 379 388 336 376 393 359 364 363 336 350 354 356 408 359 346 372 351 386 397 370 410 373 380 374 412 409 382 392 435 449 421 474 470 508 527 649 616 738 866 882 960 986 926 874 808 697 711 629 538 535 562 543 551 590 631 604 685 759 687 738 735 736 711 681 639 662 764 753 806 787 803 859 871 852 730 715 671 618 610 555 532 595 575 596 579 647 649 637 640 722 723 768 796 764 852 902 955 922 930 929 907 946 888 926 886 799 769 779 703 665 672 676 637 650 685 689 713 664 652 635 642 647 627 616 566 527 458 484 467 434 431 422 418 407 438 384 388 402 401 400 377 385 380 407 398 342 390 379 398 360 421 380 399 349 358 357 359 356 376 372 375 390 402 379 373 363 393 378 416 356 350 397 377 350 407 368 420 355 350 394 371 369 364 357 384 375 338 358 355 358 411 366 361 373 354 390 386 372 357 397 320 368 348 367 373 384 398 372 364 361 392 364 355 392 371 391 388 355 359 392 358 377 380 418 400 361 375 343 344 385 381 359 369 351 358 343 367 384 373 360 358 390 380 388 377 367 313 352 349 361 368 387 378 357 400 339 340 365 349 368 371 389 369 341 366 354 348 364 389 380 360 321 331 395 386 332 363 389 354 394 360 333 370 334 328 390 365 374 354 348 371 361 390 342 353 340 346 358 360 361 400 367 347 380 325 337 370 365 395 371 365 372 350 334 348 367 366 373 372 384 421 395 387 355 364 358 359 365 369 352 383 400 418 402 370 367 387 339 373 417 379 365 405 390 385 367 371 367 379 427 364 385 385 354 315 348 364 377 375 422 366 383 356 370 393 357 382 381 394 376 408 422 372 395 403 336 343 373 393 362 387 397 357 359 349 404 392 370 379 359 391 390 412 390 399 390 366 371 397 404 371 389 374 377 372 392 367 385 365 390 336 356 403 406 412 398 406 408 374 403 392 374 371 370 372 393 409 385 421 371 394 363 381 392 420 371 398 399 382 425 386 410 372 418 395 408 400 417 381 372 402 381 418 420 393 364 375 424 375 354 395 392 381 396 381 436 419 426 407 382 410 384 387 403 385 391 411 379 383 427 390 413 406 394 392 364 424 391 369 443 404 388 441 406 399 415 427 397 403 403 377 416 417 380 407 378 428 374 441 395 413 411 434 410 438 415 400 430 446 433 406 411 439 391 401 441 412 438 461 448 428 468 493 472 505 577 541 579 595 614 557 565 530 490 500 489 532 507 491 477 497 455 521 516 514 576 594 674 698 677 668 662 741 690 695 681 665 701 666 599 603 589 585 578 548 605 581 599 558 590 562 580 558 548 543 588 494 530 514 544 545 468 509 455 461 463 472 456 475 464 455 457 467 468 440 424 479 507 523 535 511 559 598 634 689 779 777 813 817 853 831 846 824 777 791 739 690 656 648 603 556 559 603 566 601 589 585 595 619 646 607 676 543 553 554 533 515 505 439 446 396 435 395 430 390 371 389 373 407 362 417 364 379 391 377 358 378 359 371 376 343 366 353 365 385 367 372 359 352 320 377 351 359 381 356 337 342 356 355 343 321 363 363 363 361 370 322 337 368 355 368 319 358 346 357 408 325 382 343 348 372 348 353 365 352 348 363 355 326 364 348 381 326 349 365 353 312 347 356 348 343 356 334 355 310 365 347 333 318 341 339 342 383 357 307 343 349 384 375 349 372 370 317 315 322 358 329 357 358 357 360 354 360 338 380 389 351 350 377 338 371 350 362 374 358 399 377 378 340 388 354 375 387 341 364 378 338 362 365 364 330 364 342 372 368 365 372 332 363 406 396 359 395 370 360 382 383 365 364 387 375 393 375 362 355 335 317 373 345 344 343 361 350 349 339 367 398 344 396 348 322 380 351 364 351 395 337 368 382 401 367 405 390 398 362 368 412 408 436 383 387 390 402 418 441 410 418 444 492 529 513 560 620 696 763 778 821 891 859 815 759 668 690 588 582 505 464 488 442 476 487 495 499 520 535 588 585 611 620 651 539 569 521 469 502 467 418 412 413 411 398 383 402 355 366 354 388 359 361 340 363 326 379 371 374 347 335 369 320 337 336 368 337 338 347 357 326 301 375 360 344 361 313 337 310 334 325 324 386 340 356 362 344 380 317 337 401 300 330 337 371 360 365 338 326 358 371 376 340 347 347 357 392 366 323 367 337 341 351 374 400 377 380 392 373 342 348 347 365 337 346 378 351 371 327 327 345 339 352 338 371 316 415 358 365</counts>
			</dataPoints>
		</scan>
	</xrdMeasurement>
</xrdMeasurements>
